2023: 7: 6: 7:37:38: 81
      time   velocity     latpos     clutch       ypos    heading  traflight       gear     segnum 

    0.1000,    4.0636,   -0.0668,    0.0000,  238.5723,  359.5808,    0.0000,    1.0000,    0.0000
    0.2000,    4.1966,   -0.0693,    0.0000,  238.9857,  359.5959,    0.0000,    1.0000,    0.0000
    0.3000,    4.3293,   -0.0719,    0.0000,  239.4123,  359.6113,    0.0000,    1.0000,    0.0000
    0.4000,    4.4630,   -0.0744,    0.0000,  239.8523,  359.6273,    0.0000,    1.0000,    0.0000
    0.5000,    4.5964,   -0.0769,    0.0000,  240.3056,  359.6437,    0.0000,    1.0000,    0.0000
    0.6000,    4.7275,   -0.0793,    0.0000,  240.7722,  359.6603,    0.0000,    1.0000,    0.0000
    0.7000,    4.8515,   -0.0816,    0.0000,  241.2516,  359.6757,    0.0000,    1.0000,    0.0000
    0.8000,    4.9659,   -0.0840,    0.0000,  241.7428,  359.6879,    0.0000,    1.0000,    0.0000
    0.9000,    5.0532,   -0.0865,    0.0000,  242.2442,  359.6968,    0.0000,    1.0000,    0.0000
    1.0000,    5.1203,   -0.0889,    0.0000,  242.7533,  359.7052,    0.0000,    1.0000,    0.0000
    1.1000,    5.1514,   -0.0913,    0.0000,  243.2673,  359.7137,    0.0000,    1.0000,    0.0000
    1.2000,    5.1348,   -0.0937,   85.1653,  243.7821,  359.7220,    0.0000,    1.0000,    0.0000
    1.3000,    5.0932,   -0.0960,   99.8880,  244.2933,  359.7274,    0.0000,    1.0000,    0.0000
    1.4000,    5.0518,   -0.0985,   99.9987,  244.8005,  359.7246,    0.0000,    1.0000,    0.0000
    1.5000,    5.0105,   -0.1012,  100.0000,  245.3035,  359.7147,    0.0000,    1.0000,    0.0000
    1.6000,    4.9692,   -0.1040,  100.0000,  245.8023,  359.7039,    0.0000,    0.0000,    0.0000
    1.7000,    4.9279,   -0.1069,  100.0000,  246.2971,  359.6932,    0.0000,    0.0000,    0.0000
    1.8000,    4.8867,   -0.1098,  100.0000,  246.7877,  359.6827,    0.0000,    2.0000,    0.0000
    1.9000,    4.8455,   -0.1127,  100.0000,  247.2742,  359.6755,    0.0000,    2.0000,    0.0000
    2.0000,    4.8043,   -0.1156,  100.0000,  247.7565,  359.6703,    0.0000,    2.0000,    0.0000
    2.1000,    4.7632,   -0.1185,  100.0000,  248.2348,  359.6651,    0.0000,    2.0000,    0.0000
    2.2000,    4.7221,   -0.1214,  100.0000,  248.7089,  359.6602,    0.0000,    2.0000,    0.0000
    2.3000,    4.6816,   -0.1244,   99.3060,  249.1791,  359.6553,    0.0000,    2.0000,    0.0000
    2.4000,    4.8201,   -0.1274,   40.7137,  249.6525,  359.6503,    0.0000,    2.0000,    0.0000
    2.5000,    4.9826,   -0.1302,    0.4733,  250.1446,  359.6562,    0.0000,    2.0000,    0.0000
    2.6000,    5.0164,   -0.1323,    0.0075,  250.6445,  359.6879,    0.0000,    2.0000,    0.0000
    2.7000,    5.0739,   -0.1337,    0.0002,  251.1488,  359.7306,    0.0000,    2.0000,    0.0000
    2.8000,    5.1646,   -0.1348,    0.0000,  251.6608,  359.7751,    0.0000,    2.0000,    0.0000
    2.9000,    5.2744,   -0.1355,    0.0000,  252.1829,  359.8205,    0.0000,    2.0000,    0.0000
    3.0000,    5.3990,   -0.1357,    0.0000,  252.7168,  359.8669,    0.0000,    2.0000,    0.0000
    3.1000,    5.5331,   -0.1355,    0.0000,  253.2637,  359.9144,    0.0000,    2.0000,    0.0000
    3.2000,    5.6790,   -0.1347,    0.0000,  253.8246,   14.9371,    0.0000,    2.0000,    0.0000
    3.3000,    5.8362,   -0.1324,    0.0000,  254.4007,    0.7361,    0.0000,    2.0000,    0.0000
    3.4000,    6.0011,   -0.1288,    0.0000,  254.9925,    0.1548,    0.0000,    2.0000,    0.0000
    3.5000,    6.1740,   -0.1241,    0.0000,  255.6016,    0.2553,    0.0000,    2.0000,    0.0000
    3.6000,    6.3584,   -0.1185,    0.0000,  256.2286,    0.3430,    0.0000,    2.0000,    0.0000
    3.7000,    6.5559,   -0.1128,    0.0000,  256.8748,    0.4013,    0.0000,    2.0000,    0.0000
    3.8000,    6.7537,   -0.1065,    0.0000,  257.5408,    0.4525,    0.0000,    2.0000,    0.0000
    3.9000,    6.9496,   -0.0994,    0.0000,  258.2265,    0.5087,    0.0000,    2.0000,    0.0000
    4.0000,    7.1436,   -0.0912,    0.0000,  258.9316,    0.5686,    0.0000,    2.0000,    0.0000
    4.1000,    7.3357,   -0.0813,    0.0000,  259.6561,    0.6562,    0.0000,    2.0000,    0.0000
    4.2000,    7.5259,   -0.0680,    0.0000,  260.3996,    0.8092,    0.0000,    2.0000,    0.0000
    4.3000,    7.7143,   -0.0538,    0.0000,  261.1619,    0.7423,    0.0000,    2.0000,    1.0000
    4.4000,    7.9009,   -0.0388,    0.0000,  261.9430,    0.7509,    0.0000,    2.0000,    1.0000
    4.5000,    8.0857,   -0.0243,    0.0000,  262.7420,    0.7328,    0.0000,    2.0000,    1.0000
    4.6000,    8.2703,   -0.0102,    0.0000,  263.5600,    0.7007,    0.0000,    2.0000,    1.0000
    4.7000,    8.4543,    0.0031,    0.0000,  264.3963,    0.6476,    0.0000,    2.0000,    1.0000
    4.8000,    8.6371,    0.0142,    0.0000,  265.2509,    0.5418,    0.0000,    2.0000,    1.0000
    4.9000,    8.8181,    0.0226,    0.0000,  266.1237,    0.3934,    0.0000,    2.0000,    1.0000
    5.0000,    8.9972,    0.0287,    0.0000,  267.0146,    0.2372,    0.0000,    2.0000,    1.0000
    5.1000,    9.1746,    0.0331,    0.0000,  267.9231,    0.1038,    0.0000,    2.0000,    1.0000
    5.2000,    9.3502,    0.0369,    0.0000,  268.8492,    0.0107,    0.0000,    2.0000,    1.0000
    5.3000,    9.5240,    0.0402,    0.0000,  269.7926,   -0.0544,    0.0000,    2.0000,    1.0000
    5.4000,    9.6961,    0.0427,    0.0000,  270.7532,  345.6891,    0.0000,    2.0000,    1.0000
    5.5000,    9.8664,    0.0445,    0.0000,  271.7307,  359.2145,    0.0000,    2.0000,    1.0000
    5.6000,   10.0350,    0.0461,    0.0000,  272.7250,  359.7763,    0.0000,    2.0000,    1.0000
    5.7000,   10.2008,    0.0478,    0.0000,  273.7354,  359.7914,    0.0000,    2.0000,    1.0000
    5.8000,   10.3590,    0.0490,    0.0000,  274.7622,  359.7665,    0.0000,    2.0000,    1.0000
    5.9000,   10.5020,    0.0485,    0.0000,  275.8039,  359.7085,    0.0000,    2.0000,    1.0000
    6.0000,   10.6267,    0.0463,    0.0000,  276.8587,  359.6293,    0.0000,    2.0000,    1.0000
    6.1000,   10.7140,    0.0425,    0.0000,  277.9242,  359.5463,    0.0000,    2.0000,    1.0000
    6.2000,   10.7396,    0.0370,    0.0000,  278.9950,  359.4620,    0.0000,    2.0000,    1.0000
    6.3000,   10.6973,    0.0300,   84.4323,  280.0645,  359.3773,    0.0000,    2.0000,    1.0000
    6.4000,   10.6462,    0.0214,   99.4463,  281.1285,  359.2928,    0.0000,    2.0000,    1.0000
    6.5000,   10.5975,    0.0113,   99.9777,  282.1874,  359.2090,    0.0000,    2.0000,    1.0000
    6.6000,   10.5489,   -0.0002,   99.9990,  283.2413,  359.1257,    0.0000,    0.0000,    1.0000
    6.7000,   10.5005,   -0.0133,  100.0000,  284.2902,  359.0430,    0.0000,    3.0000,    1.0000
    6.8000,   10.4522,   -0.0277,  100.0000,  285.3339,  358.9608,    0.0000,    3.0000,    1.0000
    6.9000,   10.4039,   -0.0436,  100.0000,  286.3726,  358.8792,    0.0000,    3.0000,    1.0000
    7.0000,   10.3557,   -0.0609,  100.0000,  287.4062,  358.7982,    0.0000,    3.0000,    1.0000
    7.1000,   10.3076,   -0.0796,  100.0000,  288.4348,  358.7177,    0.0000,    3.0000,    1.0000
    7.2000,   10.2596,   -0.0996,  100.0000,  289.4583,  358.6384,    0.0000,    3.0000,    1.0000
    7.3000,   10.2116,   -0.1206,  100.0000,  290.4767,  358.5698,    0.0000,    3.0000,    1.0000
    7.4000,   10.2604,   -0.1421,   54.0037,  291.4930,  358.5186,    0.0000,    3.0000,    1.0000
    7.5000,   10.4544,   -0.1648,    5.6992,  292.5233,  358.4729,    0.0000,    3.0000,    1.0000
    7.6000,   10.5529,   -0.1886,    0.2393,  293.5693,  358.4264,    0.0000,    3.0000,    1.0000
    7.7000,   10.6057,   -0.2129,    0.0111,  294.6207,  358.3970,    0.0000,    3.0000,    1.0000
    7.8000,   10.6587,   -0.2365,    0.0000,  295.6765,  358.4078,    0.0000,    3.0000,    1.0000
    7.9000,   10.7202,   -0.2590,    0.0000,  296.7374,  358.4478,    0.0000,    3.0000,    1.0000
    8.0000,   10.7910,   -0.2808,    0.0000,  297.8043,  358.4918,    0.0000,    3.0000,    1.0000
    8.1000,   10.8647,   -0.3019,    0.0000,  298.8777,  358.5378,    0.0000,    3.0000,    1.0000
    8.2000,   10.9411,   -0.3214,    0.0000,  299.9576,  358.6124,    0.0000,    3.0000,    1.0000
    8.3000,   11.0245,   -0.3381,    0.0000,  301.0443,  358.7286,    0.0000,    3.0000,    1.0000
    8.4000,   11.1127,   -0.3525,    0.0000,  302.1385,  358.8525,    0.0000,    3.0000,    1.0000
    8.5000,   11.2021,   -0.3647,    0.0000,  303.2403,  358.9770,    0.0000,    3.0000,    1.0000
    8.6000,   11.2927,   -0.3741,    0.0000,  304.3498,  359.1133,    0.0000,    3.0000,    1.0000
    8.7000,   11.3840,   -0.3796,    0.0000,  305.4667,  359.2929,    0.0000,    3.0000,    1.0000
    8.8000,   11.4759,   -0.3806,    0.0000,  306.5909,  359.4986,    0.0000,    3.0000,    1.0000
    8.9000,   11.5683,   -0.3775,    0.0000,  307.7222,  359.7086,    0.0000,    3.0000,    1.0000
    9.0000,   11.6607,   -0.3700,    0.0000,  308.8609,  359.9230,    0.0000,    3.0000,    1.0000
    9.1000,   11.7538,   -0.3571,    0.0000,  310.0066,    4.8722,    0.0000,    3.0000,    1.0000
    9.2000,   11.8489,   -0.3386,    0.0000,  311.1590,    0.5098,    0.0000,    3.0000,    1.0000
    9.3000,   11.9471,   -0.3144,    0.0000,  312.3185,    0.6910,    0.0000,    3.0000,    1.0000
    9.4000,   12.0489,   -0.2856,    0.0000,  313.4854,    0.9236,    0.0000,    3.0000,    1.0000
    9.5000,   12.1537,   -0.2525,    0.0000,  314.6601,    1.1347,    0.0000,    3.0000,    1.0000
    9.6000,   12.2618,   -0.2150,    0.0000,  315.8426,    1.3357,    0.0000,    3.0000,    1.0000
    9.7000,   12.3764,   -0.1748,    0.0000,  317.0338,    1.4777,    0.0000,    3.0000,    1.0000
    9.8000,   12.4957,   -0.1350,    0.0000,  318.2349,    1.5088,    0.0000,    3.0000,    1.0000
    9.9000,   12.6184,   -0.0972,    0.0000,  319.4465,    1.4500,    0.0000,    3.0000,    1.0000
   10.0000,   12.7460,   -0.0615,    0.0000,  320.6694,    1.3615,    0.0000,    3.0000,    1.0000
   10.1000,   12.8778,   -0.0275,    0.0000,  321.9037,    1.2688,    0.0000,    3.0000,    1.0000
   10.2000,   13.0113,    0.0047,    0.0000,  323.1495,    1.1744,    0.0000,    3.0000,    1.0000
   10.3000,   13.1460,    0.0350,    0.0000,  324.4070,    1.0782,    0.0000,    3.0000,    1.0000
   10.4000,   13.2808,    0.0633,    0.0000,  325.6761,    0.9803,    0.0000,    3.0000,    1.0000
   10.5000,   13.4148,    0.0896,    0.0000,  326.9569,    0.8806,    0.0000,    3.0000,    1.0000
   10.6000,   13.5480,    0.1138,    0.0000,  328.2491,    0.7792,    0.0000,    3.0000,    1.0000
   10.7000,   13.6804,    0.1358,    0.0000,  329.5527,    0.6761,    0.0000,    3.0000,    1.0000
   10.8000,   13.8120,    0.1554,    0.0000,  330.8674,    0.5712,    0.0000,    3.0000,    1.0000
   10.9000,   13.9427,    0.1727,    0.0000,  332.1929,    0.4646,    0.0000,    3.0000,    1.0000
   11.0000,   14.0727,    0.1874,    0.0000,  333.5296,    0.3562,    0.0000,    3.0000,    1.0000
   11.1000,   14.2018,    0.1996,    0.0000,  334.8771,    0.2460,    0.0000,    3.0000,    1.0000
   11.2000,   14.3301,    0.2086,    0.0000,  336.2354,    0.1208,    0.0000,    3.0000,    1.0000
   11.3000,   14.4577,    0.2129,    0.0000,  337.6048,  351.4181,    0.0000,    3.0000,    1.0000
   11.4000,   14.5843,    0.2118,    0.0000,  338.9854,  359.5011,    0.0000,    3.0000,    1.0000
   11.5000,   14.7072,    0.2055,    0.0000,  340.3768,  359.5341,    0.0000,    3.0000,    1.0000
   11.6000,   14.8260,    0.1948,    0.0000,  341.7784,  359.3640,    0.0000,    3.0000,    1.0000
   11.7000,   14.9345,    0.1810,    0.0000,  343.1890,  359.2318,    0.0000,    3.0000,    1.0000
   11.8000,   15.0138,    0.1647,    0.0000,  344.6065,  359.1273,    0.0000,    3.0000,    1.0000
   11.9000,   15.0470,    0.1466,   15.9027,  346.0269,  359.0526,    0.0000,    3.0000,    1.0000
   12.0000,   15.0147,    0.1270,   99.2304,  347.4450,  358.9893,    0.0000,    3.0000,    1.0000
   12.1000,   14.9570,    0.1058,   99.9892,  348.8557,  358.9270,    0.0000,    3.0000,    1.0000
   12.2000,   14.8991,    0.0830,   99.9998,  350.2585,  358.8654,    0.0000,    3.0000,    1.0000
   12.3000,   14.8414,    0.0588,  100.0000,  351.6533,  358.8046,    0.0000,    3.0000,    1.0000
   12.4000,   14.7839,    0.0332,  100.0000,  353.0403,  358.7445,    0.0000,    0.0000,    1.0000
   12.5000,   14.7265,    0.0061,  100.0000,  354.4193,  358.6851,    0.0000,    4.0000,    1.0000
   12.6000,   14.6692,   -0.0223,  100.0000,  355.7905,  358.6264,    0.0000,    4.0000,    1.0000
   12.7000,   14.6121,   -0.0522,  100.0000,  357.1538,  358.5683,    0.0000,    4.0000,    1.0000
   12.8000,   14.5551,   -0.0833,  100.0000,  358.5091,  358.5104,    0.0000,    4.0000,    1.0000
   12.9000,   14.4982,   -0.1158,  100.0000,  359.8568,  358.4530,    0.0000,    4.0000,    1.0000
   13.0000,   14.4415,   -0.1496,  100.0000,  361.1965,  358.3963,    0.0000,    4.0000,    1.0000
   13.1000,   14.3849,   -0.1847,  100.0000,  362.5283,  358.3402,    0.0000,    4.0000,    1.0000
   13.2000,   14.3324,   -0.2210,   92.4825,  363.8523,  358.2849,    0.0000,    4.0000,    1.0000
   13.3000,   14.4011,   -0.2585,    7.3435,  365.1742,  358.2343,    0.0000,    4.0000,    1.0000
   13.4000,   14.3916,   -0.2962,    0.1837,  366.4960,  358.2200,    0.0000,    4.0000,    1.0000
   13.5000,   14.3885,   -0.3312,    0.0054,  367.8127,  358.2962,    0.0000,    4.0000,    1.0000
   13.6000,   14.4009,   -0.3625,    0.0002,  369.1251,  358.4212,    0.0000,    4.0000,    1.0000
   13.7000,   14.4208,   -0.3900,    0.0000,  370.4341,  358.5659,    0.0000,    4.0000,    1.0000
   13.8000,   14.4469,   -0.4127,    0.0000,  371.7396,  358.7445,    0.0000,    4.0000,    1.0000
   13.9000,   14.4811,   -0.4297,    0.0000,  373.0418,  358.9616,    0.0000,    4.0000,    1.0000
   14.0000,   14.5181,   -0.4412,    0.0000,  374.3412,  359.1822,    0.0000,    4.0000,    1.0000
   14.1000,   14.5572,   -0.4486,    0.0000,  375.6384,  359.3541,    0.0000,    4.0000,    1.0000
   14.2000,   14.5977,   -0.4542,    0.0000,  376.9345,  359.4553,    0.0000,    4.0000,    1.0000
   14.3000,   14.6395,   -0.4579,    0.0000,  378.2295,  359.5400,    0.0000,    4.0000,    1.0000
   14.4000,   14.6821,   -0.4592,    0.0000,  379.5231,  359.6331,    0.0000,    4.0000,    1.0000
   14.5000,   14.7247,   -0.4579,    0.0000,  380.8152,  359.7297,    0.0000,    4.0000,    1.0000
   14.6000,   14.7670,   -0.4542,    0.0000,  382.1057,  359.8264,    0.0000,    4.0000,    1.0000
   14.7000,   14.8092,   -0.4480,    0.0000,  383.3944,  359.9223,    0.0000,    4.0000,    1.0000
   14.8000,   14.8511,   -0.4394,    0.0000,  384.6814,   14.2285,    0.0000,    4.0000,    1.0000
   14.9000,   14.8929,   -0.4283,    0.0000,  385.9663,    0.7330,    0.0000,    4.0000,    1.0000
   15.0000,   14.9344,   -0.4148,    0.0000,  387.2493,    0.2069,    0.0000,    4.0000,    1.0000
   15.1000,   14.9748,   -0.3987,    0.0000,  388.5298,    0.3010,    0.0000,    4.0000,    1.0000
   15.2000,   15.0151,   -0.3806,    0.0000,  389.8082,    0.3842,    0.0000,    4.0000,    1.0000
   15.3000,   15.0551,   -0.3606,    0.0000,  391.0843,    0.4554,    0.0000,    4.0000,    1.0000
   15.4000,   15.0940,   -0.3387,    0.0000,  392.3580,    0.5266,    0.0000,    4.0000,    1.0000
   15.5000,   15.1327,   -0.3149,    0.0000,  393.6291,    0.5980,    0.0000,    4.0000,    1.0000
   15.6000,   15.1712,   -0.2892,    0.0000,  394.8974,    0.6691,    0.0000,    4.0000,    1.0000
   15.7000,   15.2096,   -0.2616,    0.0000,  396.1629,    0.7398,    0.0000,    4.0000,    1.0000
   15.8000,   15.2482,   -0.2324,    0.0000,  397.4258,    0.7986,    0.0000,    4.0000,    1.0000
   15.9000,   15.2884,   -0.2031,    0.0000,  398.6867,    0.8110,    0.0000,    4.0000,    1.0000
   16.0000,   15.3283,   -0.1750,    0.0000,  399.9463,    0.7807,    0.0000,    4.0000,    1.0000
   16.1000,   15.3693,   -0.1480,    0.0000,  401.2047,    0.7395,    0.0000,    4.0000,    1.0000
   16.2000,   15.4119,   -0.1223,    0.0000,  402.4618,    0.6904,    0.0000,    4.0000,    1.0000
   16.3000,   15.4553,   -0.0996,    0.0000,  403.7187,    0.5898,    0.0000,    4.0000,    1.0000
   16.4000,   15.4990,   -0.0826,    0.0000,  404.9771,    0.4028,    0.0000,    4.0000,    1.0000
   16.5000,   15.5430,   -0.0726,    0.0000,  406.2375,    0.1623,    0.0000,    4.0000,    1.0000
   16.6000,   15.5868,   -0.0690,    0.0000,  407.4997,  350.6170,    0.0000,    4.0000,    1.0000
   16.7000,   15.6303,   -0.0708,    0.0000,  408.7628,  359.4370,    0.0000,    4.0000,    1.0000
   16.8000,   15.6734,   -0.0760,    0.0000,  410.0258,  359.5662,    0.0000,    4.0000,    1.0000
   16.9000,   15.7164,   -0.0832,    0.0000,  411.2876,  359.4846,    0.0000,    4.0000,    1.0000
   17.0000,   15.7591,   -0.0915,    0.0000,  412.5477,  359.4362,    0.0000,    4.0000,    1.0000
   17.1000,   15.8016,   -0.1004,    0.0000,  413.8055,  359.4093,    0.0000,    4.0000,    1.0000
   17.2000,   15.8440,   -0.1099,    0.0000,  415.0611,  359.3862,    0.0000,    4.0000,    1.0000
   17.3000,   15.8861,   -0.1201,    0.0000,  416.3144,  359.3632,    0.0000,    4.0000,    1.0000
   17.4000,   15.9281,   -0.1310,    0.0000,  417.5651,  359.3399,    0.0000,    4.0000,    1.0000
   17.5000,   15.9697,   -0.1420,    0.0000,  418.8130,  359.3340,    0.0000,    4.0000,    1.0000
   17.6000,   16.0110,   -0.1516,    0.0000,  420.0568,  359.3739,    0.0000,    4.0000,    1.0000
   17.7000,   16.0522,   -0.1595,    0.0000,  421.2964,  359.4308,    0.0000,    4.0000,    1.0000
   17.8000,   16.0932,   -0.1657,    0.0000,  422.5315,  359.4904,    0.0000,    4.0000,    1.0000
   17.9000,   16.1338,   -0.1695,    0.0000,  423.7615,  359.5735,    0.0000,    4.0000,    1.0000
   18.0000,   16.1742,   -0.1696,    0.0000,  424.9855,  359.6939,    0.0000,    4.0000,    1.0000
   18.1000,   16.2145,   -0.1661,    0.0000,  426.2034,  359.8238,    0.0000,    4.0000,    1.0000
   18.2000,   16.2546,   -0.1588,    0.0000,  427.4149,   16.6783,    0.0000,    4.0000,    1.0000
   18.3000,   16.2946,   -0.1482,    0.0000,  428.6202,    0.1272,    0.0000,    4.0000,    1.0000
   18.4000,   16.3348,   -0.1364,    0.0000,  429.8206,    0.1266,    0.0000,    4.0000,    1.0000
   18.5000,   16.3747,   -0.1259,    0.0000,  431.0175,    0.1022,    0.0000,    4.0000,    1.0000
   18.6000,   16.4144,   -0.1168,    0.0000,  432.2110,    0.0592,    0.0000,    4.0000,    1.0000
   18.7000,   16.4538,   -0.1090,    0.0000,  433.4009,    0.0130,    0.0000,    4.0000,    1.0000
   18.8000,   16.4926,   -0.1031,    0.0000,  434.5876,   -0.0533,    0.0000,    4.0000,    1.0000
   18.9000,   16.5291,   -0.1015,    0.0000,  435.7725,  348.9896,    0.0000,    4.0000,    1.0000
   19.0000,   16.5591,   -0.1058,    0.0000,  436.9563,  359.2482,    0.0000,    4.0000,    1.0000
   19.1000,   16.5794,   -0.1162,    0.0000,  438.1385,  359.4026,    0.0000,    4.0000,    1.0000
   19.2000,   16.5762,   -0.1259,   31.9020,  439.3180,  359.6161,    0.0000,    4.0000,    2.0000
   19.3000,   16.5329,   -0.1310,   96.7775,  440.4924,  359.7875,    0.0000,    4.0000,    2.0000
   19.4000,   16.4720,   -0.1313,   99.9870,  441.6595,    1.4077,    0.0000,    4.0000,    2.0000
   19.5000,   16.4103,   -0.1268,   99.9999,  442.8188,    0.1317,    0.0000,    4.0000,    2.0000
   19.6000,   16.3489,   -0.1194,  100.0000,  443.9716,    0.2312,    0.0000,    4.0000,    2.0000
   19.7000,   16.2876,   -0.1112,  100.0000,  445.1196,    0.2753,    0.0000,    4.0000,    2.0000
   19.8000,   16.2265,   -0.1026,  100.0000,  446.2629,    0.2991,    0.0000,    0.0000,    2.0000
