2023: 7:12: 8:41:53:620
      time   velocity     latpos     clutch       ypos    heading  traflight       gear     segnum 

    0.1000,    4.3446,   -0.2540,  100.0000,  247.2525,  359.1886,    0.0000,    2.0000,    0.0000
    0.2000,    4.3039,   -0.2594,  100.0000,  247.6848,  359.2101,    0.0000,    2.0000,    0.0000
    0.3000,    4.2631,   -0.2646,  100.0000,  248.1130,  359.2353,    0.0000,    2.0000,    0.0000
    0.4000,    4.2991,   -0.2691,   53.3043,  248.5386,  359.2766,    0.0000,    2.0000,    0.0000
    0.5000,    4.4261,   -0.2731,    1.2162,  248.9774,  359.3272,    0.0000,    2.0000,    0.0000
    0.6000,    4.4568,   -0.2768,    0.0333,  249.4214,  359.3777,    0.0000,    2.0000,    0.0000
    0.7000,    4.5065,   -0.2802,    0.0011,  249.8696,  359.4287,    0.0000,    2.0000,    0.0000
    0.8000,    4.5645,   -0.2832,    0.0000,  250.3232,  359.4793,    0.0000,    2.0000,    0.0000
    0.9000,    4.6308,   -0.2861,    0.0000,  250.7831,  359.5207,    0.0000,    2.0000,    0.0000
    1.0000,    4.7069,   -0.2889,    0.0000,  251.2501,  359.5575,    0.0000,    2.0000,    0.0000
    1.1000,    4.7971,   -0.2916,    0.0000,  251.7252,  359.5897,    0.0000,    2.0000,    0.0000
    1.2000,    4.9004,   -0.2943,    0.0000,  252.2102,  359.6142,    0.0000,    2.0000,    0.0000
    1.3000,    5.0103,   -0.2970,    0.0000,  252.7061,  359.6383,    0.0000,    2.0000,    0.0000
    1.4000,    5.1214,   -0.2994,    0.0000,  253.2130,  359.6628,    0.0000,    2.0000,    0.0000
    1.5000,    5.2332,   -0.3017,    0.0000,  253.7310,  359.6879,    0.0000,    2.0000,    0.0000
    1.6000,    5.3439,   -0.3038,    0.0000,  254.2601,  359.7134,    0.0000,    2.0000,    0.0000
    1.7000,    5.4536,   -0.3057,    0.0000,  254.8003,  359.7400,    0.0000,    2.0000,    0.0000
    1.8000,    5.5640,   -0.3073,    0.0000,  255.3515,  359.7709,    0.0000,    2.0000,    0.0000
    1.9000,    5.6733,   -0.3080,    0.0000,  255.9137,  359.8209,    0.0000,    2.0000,    0.0000
    2.0000,    5.7778,   -0.3079,    0.0000,  256.4866,  359.8811,    0.0000,    2.0000,    0.0000
    2.1000,    5.8758,   -0.3072,    0.0000,  257.0696,   16.9611,    0.0000,    2.0000,    0.0000
    2.2000,    5.9702,   -0.3059,    0.0000,  257.6619,    0.0759,    0.0000,    2.0000,    0.0000
    2.3000,    6.0606,   -0.3037,    0.0000,  258.2638,    0.0766,    0.0000,    2.0000,    0.0000
    2.4000,    6.1476,   -0.3006,    0.0000,  258.8744,    0.1494,    0.0000,    2.0000,    0.0000
    2.5000,    6.2337,   -0.2965,    0.0000,  259.4937,    0.2315,    0.0000,    2.0000,    0.0000
    2.6000,    6.3189,   -0.2910,    0.0000,  260.1215,    0.3262,    0.0000,    2.0000,    0.0000
    2.7000,    6.4043,   -0.2850,    0.0000,  260.7579,    0.2674,    0.0000,    2.0000,    1.0000
    2.8000,    6.4936,   -0.2789,    0.0000,  261.4029,    0.2464,    0.0000,    2.0000,    1.0000
    2.9000,    6.5865,   -0.2730,    0.0000,  262.0571,    0.2267,    0.0000,    2.0000,    1.0000
    3.0000,    6.6807,   -0.2671,    0.0000,  262.7206,    0.2067,    0.0000,    2.0000,    1.0000
    3.1000,    6.7738,   -0.2616,    0.0000,  263.3934,    0.1829,    0.0000,    2.0000,    1.0000
    3.2000,    6.8646,   -0.2565,    0.0000,  264.0753,    0.1473,    0.0000,    2.0000,    1.0000
    3.3000,    6.9544,   -0.2521,    0.0000,  264.7662,    0.1039,    0.0000,    2.0000,    1.0000
    3.4000,    7.0432,   -0.2485,    0.0000,  265.4662,    0.0508,    0.0000,    2.0000,    1.0000
    3.5000,    7.1295,   -0.2458,    0.0000,  266.1748,   -0.0128,    0.0000,    2.0000,    1.0000
    3.6000,    7.2150,   -0.2439,    0.0000,  266.8919,  352.4218,    0.0000,    2.0000,    1.0000
    3.7000,    7.2996,   -0.2428,    0.0000,  267.6176,  359.6688,    0.0000,    2.0000,    1.0000
    3.8000,    7.3834,   -0.2421,    0.0000,  268.3516,  359.7984,    0.0000,    2.0000,    1.0000
    3.9000,    7.4664,   -0.2418,    0.0000,  269.0938,  359.7582,    0.0000,    2.0000,    1.0000
    4.0000,    7.5485,   -0.2421,    0.0000,  269.8443,  359.7133,    0.0000,    2.0000,    1.0000
    4.1000,    7.6299,   -0.2431,    0.0000,  270.6028,  359.6675,    0.0000,    2.0000,    1.0000
    4.2000,    7.7105,   -0.2446,    0.0000,  271.3694,  359.6211,    0.0000,    2.0000,    1.0000
    4.3000,    7.7903,   -0.2468,    0.0000,  272.1438,  359.5741,    0.0000,    2.0000,    1.0000
    4.4000,    7.8693,   -0.2496,    0.0000,  272.9261,  359.5282,    0.0000,    2.0000,    1.0000
    4.5000,    7.9475,   -0.2525,    0.0000,  273.7162,  359.5009,    0.0000,    2.0000,    1.0000
    4.6000,    8.0249,   -0.2552,    0.0000,  274.5139,  359.4923,    0.0000,    2.0000,    1.0000
    4.7000,    8.1016,   -0.2580,    0.0000,  275.3192,  359.4854,    0.0000,    2.0000,    1.0000
    4.8000,    8.1776,   -0.2610,    0.0000,  276.1320,  359.4746,    0.0000,    2.0000,    1.0000
    4.9000,    8.2528,   -0.2644,    0.0000,  276.9522,  359.4597,    0.0000,    2.0000,    1.0000
    5.0000,    8.3273,   -0.2680,    0.0000,  277.7797,  359.4443,    0.0000,    2.0000,    1.0000
    5.1000,    8.4022,   -0.2718,    0.0000,  278.6144,  359.4322,    0.0000,    2.0000,    1.0000
    5.2000,    8.4769,   -0.2754,    0.0000,  279.4564,  359.4312,    0.0000,    2.0000,    1.0000
    5.3000,    8.5509,   -0.2789,    0.0000,  280.3055,  359.4365,    0.0000,    2.0000,    1.0000
    5.4000,    8.6242,   -0.2824,    0.0000,  281.1618,  359.4395,    0.0000,    2.0000,    1.0000
    5.5000,    8.6967,   -0.2863,    0.0000,  282.0251,  359.4304,    0.0000,    2.0000,    1.0000
    5.6000,    8.7686,   -0.2907,    0.0000,  282.8955,  359.4101,    0.0000,    2.0000,    1.0000
    5.7000,    8.8397,   -0.2955,    0.0000,  283.7728,  359.3874,    0.0000,    2.0000,    1.0000
    5.8000,    8.9101,   -0.3008,    0.0000,  284.6569,  359.3644,    0.0000,    2.0000,    1.0000
    5.9000,    8.9783,   -0.3064,    0.0000,  285.5476,  359.3438,    0.0000,    2.0000,    1.0000
    6.0000,    8.9498,   -0.3118,    0.0000,  286.4413,  359.3397,    0.0000,    2.0000,    1.0000
    6.1000,    8.8650,   -0.3169,   96.2513,  287.3266,  359.3446,    0.0000,    2.0000,    1.0000
    6.2000,    8.8178,   -0.3218,   99.8422,  288.2057,  359.3510,    0.0000,    2.0000,    1.0000
    6.3000,    8.7721,   -0.3266,   99.9927,  289.0799,  359.3578,    0.0000,    0.0000,    1.0000
    6.4000,    8.7265,   -0.3312,  100.0000,  289.9493,  359.3675,    0.0000,    3.0000,    1.0000
    6.5000,    8.6809,   -0.3352,  100.0000,  290.8137,  359.3892,    0.0000,    3.0000,    1.0000
    6.6000,    8.6354,   -0.3387,  100.0000,  291.6732,  359.4154,    0.0000,    3.0000,    1.0000
    6.7000,    8.5900,   -0.3418,  100.0000,  292.5276,  359.4420,    0.0000,    3.0000,    1.0000
    6.8000,    8.5447,   -0.3444,  100.0000,  293.3773,  359.4686,    0.0000,    3.0000,    1.0000
    6.9000,    8.5918,   -0.3467,   36.8081,  294.2242,  359.4958,    0.0000,    3.0000,    1.0000
    7.0000,    8.6593,   -0.3484,    1.1520,  295.0810,  359.5247,    0.0000,    3.0000,    1.0000
    7.1000,    8.6808,   -0.3499,    0.0413,  295.9395,  359.5520,    0.0000,    3.0000,    1.0000
    7.2000,    8.7175,   -0.3510,    0.0017,  296.8005,  359.5756,    0.0000,    3.0000,    1.0000
    7.3000,    8.7609,   -0.3519,    0.0001,  297.6650,  359.5968,    0.0000,    3.0000,    1.0000
    7.4000,    8.8093,   -0.3526,    0.0000,  298.5335,  359.6120,    0.0000,    3.0000,    1.0000
    7.5000,    8.8703,   -0.3532,    0.0000,  299.4070,  359.6245,    0.0000,    3.0000,    1.0000
    7.6000,    8.9428,   -0.3537,    0.0000,  300.2867,  359.6369,    0.0000,    3.0000,    1.0000
    7.7000,    9.0192,   -0.3539,    0.0000,  301.1732,  359.6491,    0.0000,    3.0000,    1.0000
    7.8000,    9.0965,   -0.3540,    0.0000,  302.0667,  359.6616,    0.0000,    3.0000,    1.0000
    7.9000,    9.1733,   -0.3536,    0.0000,  302.9673,  359.6822,    0.0000,    3.0000,    1.0000
    8.0000,    9.2496,   -0.3523,    0.0000,  303.8746,  359.7224,    0.0000,    3.0000,    1.0000
    8.1000,    9.3256,   -0.3497,    0.0000,  304.7886,  359.7807,    0.0000,    3.0000,    1.0000
    8.2000,    9.4011,   -0.3458,    0.0000,  305.7093,  359.8487,    0.0000,    3.0000,    1.0000
    8.3000,    9.4763,   -0.3408,    0.0000,  306.6364,  359.9181,    0.0000,    3.0000,    1.0000
    8.4000,    9.5510,   -0.3346,    0.0000,  307.5700,   17.0760,    0.0000,    3.0000,    1.0000
    8.5000,    9.6253,   -0.3272,    0.0000,  308.5099,    0.1304,    0.0000,    3.0000,    1.0000
    8.6000,    9.6992,   -0.3188,    0.0000,  309.4562,    0.1187,    0.0000,    3.0000,    1.0000
    8.7000,    9.7728,   -0.3101,    0.0000,  310.4089,    0.1585,    0.0000,    3.0000,    1.0000
    8.8000,    9.8458,   -0.3011,    0.0000,  311.3680,    0.1831,    0.0000,    3.0000,    1.0000
    8.9000,    9.9185,   -0.2919,    0.0000,  312.3334,    0.2008,    0.0000,    3.0000,    1.0000
    9.0000,    9.9908,   -0.2827,    0.0000,  313.3049,    0.2065,    0.0000,    3.0000,    1.0000
    9.1000,   10.0627,   -0.2738,    0.0000,  314.2827,    0.1994,    0.0000,    3.0000,    1.0000
    9.2000,   10.1341,   -0.2651,    0.0000,  315.2667,    0.1885,    0.0000,    3.0000,    1.0000
    9.3000,   10.2052,   -0.2565,    0.0000,  316.2567,    0.1769,    0.0000,    3.0000,    1.0000
    9.4000,   10.2758,   -0.2481,    0.0000,  317.2527,    0.1649,    0.0000,    3.0000,    1.0000
    9.5000,   10.3459,   -0.2399,    0.0000,  318.2545,    0.1507,    0.0000,    3.0000,    1.0000
    9.6000,   10.4145,   -0.2325,    0.0000,  319.2623,    0.1213,    0.0000,    3.0000,    1.0000
    9.7000,   10.4827,   -0.2261,    0.0000,  320.2760,    0.0723,    0.0000,    3.0000,    1.0000
    9.8000,   10.5504,   -0.2209,    0.0000,  321.2954,    0.0176,    0.0000,    3.0000,    1.0000
    9.9000,   10.6178,   -0.2165,    0.0000,  322.3206,   -0.0328,    0.0000,    3.0000,    1.0000
   10.0000,   10.6847,   -0.2125,    0.0000,  323.3512,  351.0313,    0.0000,    3.0000,    1.0000
   10.1000,   10.7519,   -0.2086,    0.0000,  324.3872,  359.6534,    0.0000,    3.0000,    1.0000
   10.2000,   10.8194,   -0.2047,    0.0000,  325.4285,  359.8932,    0.0000,    3.0000,    1.0000
   10.3000,   10.8865,   -0.2010,    0.0000,  326.4752,  359.8914,    0.0000,    3.0000,    1.0000
   10.4000,   10.9532,   -0.1975,    0.0000,  327.5270,  359.8813,    0.0000,    3.0000,    1.0000
   10.5000,   11.0196,   -0.1942,    0.0000,  328.5841,  359.8705,    0.0000,    3.0000,    1.0000
   10.6000,   11.0846,   -0.1911,    0.0000,  329.6461,  359.8592,    0.0000,    3.0000,    1.0000
   10.7000,   11.1477,   -0.1883,    0.0000,  330.7130,  359.8431,    0.0000,    3.0000,    1.0000
   10.8000,   11.2094,   -0.1862,    0.0000,  331.7849,  359.8159,    0.0000,    3.0000,    1.0000
   10.9000,   11.2662,   -0.1850,    0.0000,  332.8611,  359.7801,    0.0000,    3.0000,    1.0000
   11.0000,   11.3195,   -0.1845,    0.0000,  333.9414,  359.7421,    0.0000,    3.0000,    1.0000
   11.1000,   11.3720,   -0.1848,    0.0000,  335.0255,  359.7036,    0.0000,    3.0000,    1.0000
   11.2000,   11.4241,   -0.1859,    0.0000,  336.1132,  359.6646,    0.0000,    3.0000,    1.0000
   11.3000,   11.4759,   -0.1878,    0.0000,  337.2046,  359.6251,    0.0000,    3.0000,    1.0000
   11.4000,   11.5273,   -0.1904,    0.0000,  338.2995,  359.5872,    0.0000,    3.0000,    1.0000
   11.5000,   11.5791,   -0.1934,    0.0000,  339.3979,  359.5632,    0.0000,    3.0000,    1.0000
   11.6000,   11.6322,   -0.1961,    0.0000,  340.4993,  359.5623,    0.0000,    3.0000,    1.0000
   11.7000,   11.6827,   -0.1984,    0.0000,  341.6039,  359.5737,    0.0000,    3.0000,    1.0000
   11.8000,   11.7318,   -0.1998,    0.0000,  342.7112,  359.6046,    0.0000,    3.0000,    1.0000
   11.9000,   11.7783,   -0.2003,    0.0000,  343.8209,  359.6433,    0.0000,    3.0000,    1.0000
   12.0000,   11.8241,   -0.2001,    0.0000,  344.9329,  359.6810,    0.0000,    3.0000,    1.0000
   12.1000,   11.8695,   -0.1993,    0.0000,  346.0471,  359.7127,    0.0000,    3.0000,    1.0000
   12.2000,   11.9110,   -0.1980,    0.0000,  347.1633,  359.7397,    0.0000,    3.0000,    1.0000
   12.3000,   11.9483,   -0.1963,    0.0000,  348.2811,  359.7620,    0.0000,    3.0000,    1.0000
   12.4000,   11.9860,   -0.1948,    0.0000,  349.4005,  359.7643,    0.0000,    3.0000,    1.0000
   12.5000,   12.0268,   -0.1938,    0.0000,  350.5216,  359.7506,    0.0000,    3.0000,    1.0000
   12.6000,   12.0679,   -0.1932,    0.0000,  351.6447,  359.7339,    0.0000,    3.0000,    1.0000
   12.7000,   12.1068,   -0.1930,    0.0000,  352.7696,  359.7166,    0.0000,    3.0000,    1.0000
   12.8000,   12.1454,   -0.1932,    0.0000,  353.8960,  359.6993,    0.0000,    3.0000,    1.0000
   12.9000,   12.1837,   -0.1935,    0.0000,  355.0240,  359.6882,    0.0000,    3.0000,    1.0000
   13.0000,   12.2217,   -0.1934,    0.0000,  356.1529,  359.6992,    0.0000,    3.0000,    1.0000
   13.1000,   12.2595,   -0.1925,    0.0000,  357.2829,  359.7233,    0.0000,    3.0000,    1.0000
   13.2000,   12.2972,   -0.1911,    0.0000,  358.4138,  359.7488,    0.0000,    3.0000,    1.0000
   13.3000,   12.3346,   -0.1891,    0.0000,  359.5456,  359.7740,    0.0000,    3.0000,    1.0000
   13.4000,   12.3717,   -0.1867,    0.0000,  360.6782,  359.7988,    0.0000,    3.0000,    1.0000
   13.5000,   12.4087,   -0.1837,    0.0000,  361.8117,  359.8202,    0.0000,    3.0000,    1.0000
   13.6000,   12.4455,   -0.1809,    0.0000,  362.9460,  359.8267,    0.0000,    3.0000,    1.0000
   13.7000,   12.4820,   -0.1783,    0.0000,  364.0812,  359.8194,    0.0000,    3.0000,    1.0000
   13.8000,   12.5196,   -0.1762,    0.0000,  365.2175,  359.8036,    0.0000,    3.0000,    1.0000
   13.9000,   12.5571,   -0.1752,    0.0000,  366.3550,  359.7671,    0.0000,    3.0000,    1.0000
   14.0000,   12.5952,   -0.1754,    0.0000,  367.4938,  359.7163,    0.0000,    3.0000,    1.0000
   14.1000,   12.6353,   -0.1768,    0.0000,  368.6340,  359.6644,    0.0000,    3.0000,    1.0000
   14.2000,   12.6762,   -0.1791,    0.0000,  369.7755,  359.6209,    0.0000,    3.0000,    1.0000
   14.3000,   12.7185,   -0.1819,    0.0000,  370.9182,  359.5916,    0.0000,    3.0000,    1.0000
   14.4000,   12.7628,   -0.1851,    0.0000,  372.0621,  359.5700,    0.0000,    3.0000,    1.0000
   14.5000,   12.8097,   -0.1877,    0.0000,  373.2070,  359.5795,    0.0000,    3.0000,    1.0000
   14.6000,   12.8596,   -0.1890,    0.0000,  374.3527,  359.6236,    0.0000,    3.0000,    1.0000
   14.7000,   12.9119,   -0.1889,    0.0000,  375.4994,  359.6757,    0.0000,    3.0000,    1.0000
   14.8000,   12.9667,   -0.1878,    0.0000,  376.6473,  359.7284,    0.0000,    3.0000,    1.0000
   14.9000,   13.0224,   -0.1857,    0.0000,  377.7966,  359.7697,    0.0000,    3.0000,    1.0000
   15.0000,   13.0786,   -0.1836,    0.0000,  378.9477,  359.7867,    0.0000,    3.0000,    1.0000
   15.1000,   13.1368,   -0.1814,    0.0000,  380.1005,  359.7955,    0.0000,    3.0000,    1.0000
   15.2000,   13.1966,   -0.1791,    0.0000,  381.2552,  359.7999,    0.0000,    3.0000,    1.0000
   15.3000,   13.2561,   -0.1770,    0.0000,  382.4119,  359.7976,    0.0000,    3.0000,    1.0000
   15.4000,   13.3153,   -0.1750,    0.0000,  383.5704,  359.7936,    0.0000,    3.0000,    1.0000
   15.5000,   13.3741,   -0.1730,    0.0000,  384.7307,  359.7900,    0.0000,    3.0000,    1.0000
   15.6000,   13.4325,   -0.1712,    0.0000,  385.8925,  359.7861,    0.0000,    3.0000,    1.0000
   15.7000,   13.4906,   -0.1695,    0.0000,  387.0559,  359.7818,    0.0000,    3.0000,    1.0000
   15.8000,   13.5483,   -0.1678,    0.0000,  388.2206,  359.7770,    0.0000,    3.0000,    1.0000
   15.9000,   13.6057,   -0.1664,    0.0000,  389.3867,  359.7716,    0.0000,    3.0000,    1.0000
   16.0000,   13.6627,   -0.1654,    0.0000,  390.5541,  359.7535,    0.0000,    3.0000,    1.0000
   16.1000,   13.7195,   -0.1660,    0.0000,  391.7234,  359.7020,    0.0000,    3.0000,    1.0000
   16.2000,   13.7758,   -0.1687,    0.0000,  392.8947,  359.6277,    0.0000,    3.0000,    1.0000
   16.3000,   13.8318,   -0.1734,    0.0000,  394.0679,  359.5484,    0.0000,    3.0000,    1.0000
   16.4000,   13.8875,   -0.1801,    0.0000,  395.2428,  359.4682,    0.0000,    3.0000,    1.0000
   16.5000,   13.9428,   -0.1887,    0.0000,  396.4193,  359.3878,    0.0000,    3.0000,    1.0000
   16.6000,   13.9874,   -0.1993,    0.0000,  397.5972,  359.3083,    0.0000,    3.0000,    1.0000
   16.7000,   13.9256,   -0.2114,   32.0318,  398.7715,  359.2426,    0.0000,    3.0000,    1.0000
   16.8000,   13.8600,   -0.2244,   97.0436,  399.9355,  359.1950,    0.0000,    3.0000,    1.0000
   16.9000,   13.8044,   -0.2382,   99.8586,  401.0910,  359.1543,    0.0000,    0.0000,    1.0000
   17.0000,   13.7492,   -0.2523,   99.9993,  402.2382,  359.1322,    0.0000,    4.0000,    1.0000
   17.1000,   13.6941,   -0.2661,  100.0000,  403.3763,  359.1316,    0.0000,    4.0000,    1.0000
   17.2000,   13.6393,   -0.2797,  100.0000,  404.5055,  359.1357,    0.0000,    4.0000,    1.0000
   17.3000,   13.5846,   -0.2933,  100.0000,  405.6261,  359.1365,    0.0000,    4.0000,    1.0000
   17.4000,   13.5300,   -0.3074,  100.0000,  406.7383,  359.1172,    0.0000,    4.0000,    1.0000
   17.5000,   13.4756,   -0.3223,  100.0000,  407.8424,  359.0883,    0.0000,    4.0000,    1.0000
   17.6000,   13.4674,   -0.3378,   43.8654,  408.9391,  359.0588,    0.0000,    4.0000,    1.0000
   17.7000,   13.5029,   -0.3541,    1.5934,  410.0352,  359.0301,    0.0000,    4.0000,    1.0000
   17.8000,   13.5223,   -0.3710,    0.0651,  411.1288,  359.0011,    0.0000,    4.0000,    1.0000
   17.9000,   13.5461,   -0.3885,    0.0029,  412.2202,  358.9776,    0.0000,    4.0000,    1.0000
   18.0000,   13.5778,   -0.4059,    0.0000,  413.3095,  358.9740,    0.0000,    4.0000,    1.0000
   18.1000,   13.6249,   -0.4223,    0.0000,  414.3968,  359.0060,    0.0000,    4.0000,    1.0000
   18.2001,   13.6856,   -0.4373,    0.0000,  415.4832,  359.0573,    0.0000,    4.0000,    1.0000
   18.3001,   13.7549,   -0.4508,    0.0000,  416.5693,  359.1185,    0.0000,    4.0000,    1.0000
   18.4001,   13.8270,   -0.4623,    0.0000,  417.6552,  359.1971,    0.0000,    4.0000,    1.0000
   18.5001,   13.8990,   -0.4718,    0.0000,  418.7408,  359.2788,    0.0000,    4.0000,    1.0000
   18.6001,   13.9715,   -0.4796,    0.0000,  419.8261,  359.3568,    0.0000,    4.0000,    1.0000
   18.7001,   14.0437,   -0.4859,    0.0000,  420.9112,  359.4261,    0.0000,    4.0000,    1.0000
   18.8001,   14.1165,   -0.4908,    0.0000,  421.9961,  359.4846,    0.0000,    4.0000,    1.0000
   18.9001,   14.1891,   -0.4948,    0.0000,  423.0808,  359.5321,    0.0000,    4.0000,    1.0000
   19.0001,   14.2614,   -0.4982,    0.0000,  424.1656,  359.5602,    0.0000,    4.0000,    1.0000
   19.1001,   14.3334,   -0.5017,    0.0000,  425.2506,  359.5703,    0.0000,    4.0000,    1.0000
   19.2001,   14.4045,   -0.5057,    0.0000,  426.3361,  359.5576,    0.0000,    4.0000,    1.0000
   19.3001,   14.4734,   -0.5108,    0.0000,  427.4221,  359.5227,    0.0000,    4.0000,    1.0000
   19.4001,   14.5415,   -0.5172,    0.0000,  428.5086,  359.4796,    0.0000,    4.0000,    1.0000
   19.5001,   14.6094,   -0.5250,    0.0000,  429.5956,  359.4258,    0.0000,    4.0000,    1.0000
   19.6001,   14.6769,   -0.5346,    0.0000,  430.6831,  359.3635,    0.0000,    4.0000,    1.0000
   19.7001,   14.7441,   -0.5459,    0.0000,  431.7710,  359.2991,    0.0000,    4.0000,    1.0000
   19.8001,   14.8110,   -0.5589,    0.0000,  432.8590,  359.2338,    0.0000,    4.0000,    1.0000
